in Sa,Frequency in Hz,Gain in dB,Phase in °,Amplitude in Vpp
1.00E+00,1.000E+02,-4.346E+01,-9.255E+01,1.000E+00
2.00E+00,1.023E+02,-3.004E+01,-9.406E+01,1.000E+00
3.00E+00,1.047E+02,-2.198E+01,-9.285E+01,1.000E+00
4.00E+00,1.072E+02,-2.183E+01,-9.289E+01,1.000E+00
5.00E+00,1.096E+02,-8.689E+01,-3.955E+01,1.000E+00
6.00E+00,1.122E+02,-7.933E+01,-1.232E+02,1.000E+00
7.00E+00,1.148E+02,-2.117E+01,-9.305E+01,1.000E+00
8.00E+00,1.175E+02,-2.099E+01,-9.313E+01,1.000E+00
9.00E+00,1.202E+02,-2.080E+01,-9.320E+01,1.000E+00
1.00E+01,1.230E+02,-2.063E+01,-9.328E+01,1.000E+00
1.10E+01,1.259E+02,-2.050E+01,-9.337E+01,1.000E+00
1.20E+01,1.288E+02,-2.018E+01,-9.342E+01,1.000E+00
1.30E+01,1.318E+02,-1.999E+01,-9.346E+01,1.000E+00
1.40E+01,1.349E+02,-1.982E+01,-9.360E+01,1.000E+00
1.50E+01,1.380E+02,-1.959E+01,-9.361E+01,1.000E+00
1.60E+01,1.413E+02,-1.934E+01,-9.367E+01,1.000E+00
1.70E+01,1.445E+02,-1.913E+01,-9.371E+01,1.000E+00
1.80E+01,1.479E+02,-1.896E+01,-9.377E+01,1.000E+00
1.90E+01,1.514E+02,-1.874E+01,-9.384E+01,1.000E+00
2.00E+01,1.549E+02,-1.899E+01,-9.390E+01,1.000E+00
2.10E+01,1.585E+02,-1.830E+01,-9.409E+01,1.000E+00
2.20E+01,1.622E+02,-1.810E+01,-9.426E+01,1.000E+00
2.30E+01,1.660E+02,-1.790E+01,-9.436E+01,1.000E+00
2.40E+01,1.698E+02,-1.773E+01,-9.442E+01,1.000E+00
2.50E+01,1.738E+02,-1.778E+01,-9.452E+01,1.000E+00
2.60E+01,1.778E+02,-1.809E+01,-9.473E+01,1.000E+00
2.70E+01,1.820E+02,-1.714E+01,-9.465E+01,1.000E+00
2.80E+01,1.862E+02,-1.699E+01,-9.475E+01,1.000E+00
2.90E+01,1.905E+02,-1.678E+01,-9.483E+01,1.000E+00
3.00E+01,1.950E+02,-2.005E+01,-9.463E+01,1.000E+00
3.10E+01,1.995E+02,-1.616E+01,-9.509E+01,1.000E+00
3.20E+01,2.042E+02,-1.595E+01,-9.522E+01,1.000E+00
3.30E+01,2.089E+02,-1.575E+01,-9.534E+01,1.000E+00
3.40E+01,2.138E+02,-1.553E+01,-9.550E+01,1.000E+00
3.50E+01,2.188E+02,-1.532E+01,-9.562E+01,1.000E+00
3.60E+01,2.239E+02,-1.510E+01,-9.568E+01,1.000E+00
3.70E+01,2.291E+02,-1.500E+01,-9.583E+01,1.000E+00
3.80E+01,2.344E+02,-1.488E+01,-9.599E+01,1.000E+00
3.90E+01,2.399E+02,-1.486E+01,-9.618E+01,1.000E+00
4.00E+01,2.455E+02,-1.477E+01,-9.631E+01,1.000E+00
4.10E+01,2.512E+02,-1.523E+01,-9.703E+01,1.000E+00
4.20E+01,2.570E+02,-1.391E+01,-9.663E+01,1.000E+00
4.30E+01,2.630E+02,-1.367E+01,-9.679E+01,1.000E+00
4.40E+01,2.692E+02,-1.350E+01,-9.695E+01,1.000E+00
4.50E+01,2.754E+02,-1.360E+01,-9.712E+01,1.000E+00
4.60E+01,2.818E+02,-1.287E+01,-9.731E+01,1.000E+00
4.70E+01,2.884E+02,-1.263E+01,-9.747E+01,1.000E+00
4.80E+01,2.951E+02,-1.243E+01,-9.768E+01,1.000E+00
4.90E+01,3.020E+02,-1.239E+01,-9.784E+01,1.000E+00
5.00E+01,3.090E+02,-1.193E+01,-9.807E+01,1.000E+00
5.10E+01,3.162E+02,-1.171E+01,-9.828E+01,1.000E+00
5.20E+01,3.236E+02,-1.149E+01,-9.848E+01,1.000E+00
5.30E+01,3.311E+02,-1.127E+01,-9.878E+01,1.000E+00
5.40E+01,3.388E+02,-7.652E+01,-2.364E+01,1.000E+00
5.50E+01,3.467E+02,-7.808E+01,7.576E+01,1.000E+00
5.60E+01,3.548E+02,-7.814E+01,9.126E+00,1.000E+00
5.70E+01,3.631E+02,-7.765E+01,3.681E+01,1.000E+00
5.80E+01,3.715E+02,-8.406E+01,1.250E+02,1.000E+00
5.90E+01,3.802E+02,-8.301E+01,-8.652E+01,1.000E+00
6.00E+01,3.890E+02,-7.582E+01,-1.386E+02,1.000E+00
6.10E+01,3.981E+02,-8.349E+01,-3.057E+01,1.000E+00
6.20E+01,4.074E+02,-7.962E+01,6.160E+00,1.000E+00
6.30E+01,4.169E+02,-7.821E+01,-8.260E+01,1.000E+00
6.40E+01,4.266E+02,-8.753E+01,-1.770E+01,1.000E+00
6.50E+01,4.365E+02,-8.739E+01,2.803E+01,1.000E+00
6.60E+01,4.467E+02,-7.196E+01,1.827E+01,1.000E+00
6.70E+01,4.571E+02,-1.067E+02,-4.908E+01,1.000E+00
6.80E+01,4.677E+02,-7.320E+01,-5.548E+01,1.000E+00
6.90E+01,4.786E+02,-7.183E+01,-2.829E+00,1.000E+00
7.00E+01,4.898E+02,-7.108E+01,-1.557E+01,1.000E+00
7.10E+01,5.012E+02,-9.833E+01,1.239E+02,1.000E+00
7.20E+01,5.129E+02,-6.702E+01,-2.286E+01,1.000E+00
7.30E+01,5.248E+02,-7.100E+01,-7.768E+01,1.000E+00
7.40E+01,5.370E+02,-7.878E+01,-1.519E+02,1.000E+00
7.50E+01,5.495E+02,-7.332E+01,-4.760E+01,1.000E+00
7.60E+01,5.623E+02,-7.063E+01,-2.575E+01,1.000E+00
7.70E+01,5.754E+02,-7.272E+01,-8.385E+01,1.000E+00
7.80E+01,5.888E+02,-7.171E+01,1.472E+01,1.000E+00
7.90E+01,6.026E+02,-7.893E+01,3.768E+01,1.000E+00
8.00E+01,6.166E+02,-7.134E+01,-4.505E+01,1.000E+00
8.10E+01,6.310E+02,-7.774E+01,-6.597E+01,1.000E+00
8.20E+01,6.457E+02,-6.857E+01,-3.609E+01,1.000E+00
8.30E+01,6.607E+02,-7.066E+01,-5.956E+01,1.000E+00
8.40E+01,6.761E+02,-6.443E+01,-4.572E+01,1.000E+00
8.50E+01,6.918E+02,-6.702E+01,-4.489E+01,1.000E+00
8.60E+01,7.079E+02,-6.672E+01,-3.324E+01,1.000E+00
8.70E+01,7.244E+02,-6.225E+01,-4.177E+01,1.000E+00
8.80E+01,7.413E+02,-6.708E+01,-4.551E+01,1.000E+00
8.90E+01,7.586E+02,-6.603E+01,-5.845E+01,1.000E+00
9.00E+01,7.762E+02,-6.745E+01,-6.060E+01,1.000E+00
9.10E+01,7.943E+02,-6.639E+01,-3.720E+01,1.000E+00
9.20E+01,8.128E+02,-6.366E+01,-6.228E+01,1.000E+00
9.30E+01,8.318E+02,-6.320E+01,-5.539E+01,1.000E+00
9.40E+01,8.511E+02,-6.082E+01,-7.365E+01,1.000E+00
9.50E+01,8.710E+02,-6.150E+01,-8.066E+01,1.000E+00
9.60E+01,8.913E+02,-6.042E+01,-7.390E+01,1.000E+00
9.70E+01,9.120E+02,-6.120E+01,-8.693E+01,1.000E+00
9.80E+01,9.333E+02,-6.238E+01,-9.643E+01,1.000E+00
9.90E+01,9.550E+02,-5.994E+01,-1.003E+02,1.000E+00
1.00E+02,9.772E+02,-6.020E+01,-1.088E+02,1.000E+00
1.01E+02,1.000E+03,-6.067E+01,-1.156E+02,1.000E+00
1.02E+02,1.023E+03,-6.209E+01,-1.075E+02,1.000E+00
1.03E+02,1.047E+03,-6.080E+01,-1.069E+02,1.000E+00
1.04E+02,1.072E+03,-5.996E+01,-1.087E+02,1.000E+00
1.05E+02,1.096E+03,-6.197E+01,-1.196E+02,1.000E+00
1.06E+02,1.122E+03,-6.114E+01,-1.364E+02,1.000E+00
1.07E+02,1.148E+03,-6.328E+01,-1.257E+02,1.000E+00
1.08E+02,1.175E+03,-6.206E+01,-1.425E+02,1.000E+00
1.09E+02,1.202E+03,-6.203E+01,-1.337E+02,1.000E+00
1.10E+02,1.230E+03,-6.124E+01,-1.358E+02,1.000E+00
1.11E+02,1.259E+03,-6.218E+01,-1.315E+02,1.000E+00
1.12E+02,1.288E+03,-6.512E+01,-1.452E+02,1.000E+00
1.13E+02,1.318E+03,-6.262E+01,-1.380E+02,1.000E+00
1.14E+02,1.349E+03,-6.319E+01,-1.394E+02,1.000E+00
1.15E+02,1.380E+03,-6.596E+01,-1.707E+02,1.000E+00
1.16E+02,1.413E+03,-6.556E+01,-1.556E+02,1.000E+00
1.17E+02,1.445E+03,-6.395E+01,-1.496E+02,1.000E+00
1.18E+02,1.479E+03,-6.416E+01,-1.541E+02,1.000E+00
1.19E+02,1.514E+03,-6.313E+01,-1.551E+02,1.000E+00
1.20E+02,1.549E+03,-6.461E+01,-1.596E+02,1.000E+00
1.21E+02,1.585E+03,-6.674E+01,-1.660E+02,1.000E+00
1.22E+02,1.622E+03,-6.712E+01,-1.675E+02,1.000E+00
1.23E+02,1.660E+03,-6.538E+01,-1.595E+02,1.000E+00
1.24E+02,1.698E+03,-6.459E+01,-1.669E+02,1.000E+00
1.25E+02,1.738E+03,-6.407E+01,-1.609E+02,1.000E+00
1.26E+02,1.778E+03,-6.933E+01,-1.708E+02,1.000E+00
1.27E+02,1.820E+03,-6.717E+01,-1.713E+02,1.000E+00
1.28E+02,1.862E+03,-6.421E+01,-1.654E+02,1.000E+00
1.29E+02,1.905E+03,-6.492E+01,-1.605E+02,1.000E+00
1.30E+02,1.950E+03,-6.727E+01,-1.595E+02,1.000E+00
1.31E+02,1.995E+03,-6.723E+01,-1.524E+02,1.000E+00
1.32E+02,2.042E+03,-6.729E+01,-1.746E+02,1.000E+00
1.33E+02,2.089E+03,-6.622E+01,1.780E+02,1.000E+00
1.34E+02,2.138E+03,-6.646E+01,-1.775E+02,1.000E+00
1.35E+02,2.188E+03,-6.526E+01,-1.715E+02,1.000E+00
1.36E+02,2.239E+03,-6.718E+01,-1.603E+02,1.000E+00
1.37E+02,2.291E+03,-6.449E+01,-1.615E+02,1.000E+00
1.38E+02,2.344E+03,-6.641E+01,-1.546E+02,1.000E+00
1.39E+02,2.399E+03,-6.434E+01,-1.669E+02,1.000E+00
1.40E+02,2.455E+03,-6.738E+01,-1.718E+02,1.000E+00
1.41E+02,2.512E+03,-6.736E+01,1.777E+02,1.000E+00
1.42E+02,2.570E+03,-6.827E+01,-1.662E+02,1.000E+00
1.43E+02,2.630E+03,-6.722E+01,1.773E+02,1.000E+00
1.44E+02,2.692E+03,-6.602E+01,-1.735E+02,1.000E+00
1.45E+02,2.754E+03,-6.483E+01,-1.771E+02,1.000E+00
1.46E+02,2.818E+03,-6.531E+01,-1.733E+02,1.000E+00
1.47E+02,2.884E+03,-6.864E+01,-1.743E+02,1.000E+00
1.48E+02,2.951E+03,-6.742E+01,-1.546E+02,1.000E+00
1.49E+02,3.020E+03,-6.727E+01,-1.642E+02,1.000E+00
1.50E+02,3.090E+03,-6.880E+01,-1.687E+02,1.000E+00
1.51E+02,3.162E+03,-6.627E+01,1.779E+02,1.000E+00
1.52E+02,3.236E+03,-6.714E+01,-1.638E+02,1.000E+00
1.53E+02,3.311E+03,-6.646E+01,-1.652E+02,1.000E+00
1.54E+02,3.388E+03,-6.701E+01,-1.670E+02,1.000E+00
1.55E+02,3.467E+03,-6.857E+01,-1.733E+02,1.000E+00
1.56E+02,3.548E+03,-6.966E+01,-1.785E+02,1.000E+00
1.57E+02,3.631E+03,-6.817E+01,-1.707E+02,1.000E+00
1.58E+02,3.715E+03,-6.683E+01,-1.691E+02,1.000E+00
1.59E+02,3.802E+03,-6.535E+01,-1.769E+02,1.000E+00
1.60E+02,3.890E+03,-6.699E+01,-1.710E+02,1.000E+00
1.61E+02,3.981E+03,-7.036E+01,-1.643E+02,1.000E+00
1.62E+02,4.074E+03,-6.683E+01,-1.774E+02,1.000E+00
1.63E+02,4.169E+03,-6.791E+01,1.781E+02,1.000E+00
1.64E+02,4.266E+03,-6.751E+01,1.713E+02,1.000E+00
1.65E+02,4.365E+03,-6.722E+01,1.590E+02,1.000E+00
1.66E+02,4.467E+03,-6.780E+01,1.727E+02,1.000E+00
1.67E+02,4.571E+03,-6.689E+01,1.758E+02,1.000E+00
1.68E+02,4.677E+03,-6.629E+01,-1.722E+02,1.000E+00
1.69E+02,4.786E+03,-6.576E+01,-1.768E+02,1.000E+00
1.70E+02,4.898E+03,-6.435E+01,-1.735E+02,1.000E+00
1.71E+02,5.012E+03,-6.744E+01,1.784E+02,1.000E+00
1.72E+02,5.129E+03,-6.715E+01,-1.684E+02,1.000E+00
1.73E+02,5.248E+03,-6.667E+01,-1.552E+02,1.000E+00
1.74E+02,5.370E+03,-6.737E+01,-1.787E+02,1.000E+00
1.75E+02,5.495E+03,-6.741E+01,1.741E+02,1.000E+00
1.76E+02,5.623E+03,-6.857E+01,-1.752E+02,1.000E+00
1.77E+02,5.754E+03,-6.866E+01,-1.712E+02,1.000E+00
1.78E+02,5.888E+03,-6.714E+01,-1.725E+02,1.000E+00
1.79E+02,6.026E+03,-6.520E+01,-1.791E+02,1.000E+00
1.80E+02,6.166E+03,-6.699E+01,-1.779E+02,1.000E+00
1.81E+02,6.310E+03,-6.688E+01,-1.656E+02,1.000E+00
1.82E+02,6.457E+03,-6.616E+01,-1.676E+02,1.000E+00
1.83E+02,6.607E+03,-6.678E+01,-1.700E+02,1.000E+00
1.84E+02,6.761E+03,-7.113E+01,-1.693E+02,1.000E+00
1.85E+02,6.918E+03,-6.877E+01,-1.796E+02,1.000E+00
1.86E+02,7.079E+03,-6.763E+01,-1.750E+02,1.000E+00
1.87E+02,7.244E+03,-6.710E+01,-1.792E+02,1.000E+00
1.88E+02,7.413E+03,-6.763E+01,1.783E+02,1.000E+00
1.89E+02,7.586E+03,-6.666E+01,-1.726E+02,1.000E+00
1.90E+02,7.762E+03,-6.670E+01,-1.784E+02,1.000E+00
1.91E+02,7.943E+03,-6.706E+01,-1.734E+02,1.000E+00
1.92E+02,8.128E+03,-6.969E+01,-1.659E+02,1.000E+00
1.93E+02,8.318E+03,-6.833E+01,-1.728E+02,1.000E+00
1.94E+02,8.511E+03,-6.662E+01,1.784E+02,1.000E+00
1.95E+02,8.710E+03,-7.019E+01,1.712E+02,1.000E+00
1.96E+02,8.913E+03,-7.142E+01,-1.717E+02,1.000E+00
1.97E+02,9.120E+03,-6.934E+01,-1.789E+02,1.000E+00
1.98E+02,9.333E+03,-6.801E+01,-1.750E+02,1.000E+00
1.99E+02,9.550E+03,-6.716E+01,1.773E+02,1.000E+00
2.00E+02,9.772E+03,-6.873E+01,1.745E+02,1.000E+00
2.01E+02,1.000E+04,-6.610E+01,-1.761E+02,1.000E+00
