in Sa,Frequency in Hz,Gain in dB,Phase in °,Amplitude in Vpp
1.00E+00,1.000E+02,-8.598E+01,-3.796E+01,1.000E+00
2.00E+00,1.023E+02,-8.382E+01,1.155E+02,1.000E+00
3.00E+00,1.047E+02,-8.346E+01,-6.992E+01,1.000E+00
4.00E+00,1.072E+02,-8.375E+01,1.217E+02,1.000E+00
5.00E+00,1.096E+02,-8.258E+01,1.108E+02,1.000E+00
6.00E+00,1.122E+02,-8.303E+01,-1.038E+02,1.000E+00
7.00E+00,1.148E+02,-8.323E+01,-7.772E+01,1.000E+00
8.00E+00,1.175E+02,-8.922E+01,-4.006E+01,1.000E+00
9.00E+00,1.202E+02,-9.657E+01,1.080E+02,1.000E+00
1.00E+01,1.230E+02,-8.723E+01,-4.239E+00,1.000E+00
1.10E+01,1.259E+02,-9.733E+01,4.704E+01,1.000E+00
1.20E+01,1.288E+02,-9.223E+01,-1.208E+02,1.000E+00
1.30E+01,1.318E+02,-8.150E+01,9.940E+01,1.000E+00
1.40E+01,1.349E+02,-8.192E+01,6.009E+01,1.000E+00
1.50E+01,1.380E+02,-8.073E+01,7.793E+01,1.000E+00
1.60E+01,1.413E+02,-8.560E+01,1.061E+02,1.000E+00
1.70E+01,1.445E+02,-8.912E+01,-5.355E+01,1.000E+00
1.80E+01,1.479E+02,-8.976E+01,-3.401E+01,1.000E+00
1.90E+01,1.514E+02,-8.993E+01,-1.243E+02,1.000E+00
2.00E+01,1.549E+02,-7.770E+01,-7.460E+01,1.000E+00
2.10E+01,1.585E+02,-7.950E+01,-2.718E+01,1.000E+00
2.20E+01,1.622E+02,-8.408E+01,-9.789E+01,1.000E+00
2.30E+01,1.660E+02,-8.392E+01,-2.814E+01,1.000E+00
2.40E+01,1.698E+02,-8.831E+01,8.448E+01,1.000E+00
2.50E+01,1.738E+02,-8.127E+01,8.175E+01,1.000E+00
2.60E+01,1.778E+02,-7.994E+01,1.371E+02,1.000E+00
2.70E+01,1.820E+02,-8.059E+01,-1.384E+02,1.000E+00
2.80E+01,1.862E+02,-7.943E+01,8.728E+01,1.000E+00
2.90E+01,1.905E+02,-8.212E+01,-2.066E+01,1.000E+00
3.00E+01,1.950E+02,-7.811E+01,-4.071E+01,1.000E+00
3.10E+01,1.995E+02,-7.468E+01,-5.653E+01,1.000E+00
3.20E+01,2.042E+02,-8.592E+01,5.281E+01,1.000E+00
3.30E+01,2.089E+02,-8.214E+01,9.148E+01,1.000E+00
3.40E+01,2.138E+02,-8.908E+01,-4.305E+01,1.000E+00
3.50E+01,2.188E+02,-8.094E+01,-2.047E+01,1.000E+00
3.60E+01,2.239E+02,-9.274E+01,-1.090E+02,1.000E+00
3.70E+01,2.291E+02,-7.839E+01,-3.081E+01,1.000E+00
3.80E+01,2.344E+02,-7.971E+01,-1.485E+02,1.000E+00
3.90E+01,2.399E+02,-8.358E+01,1.561E+02,1.000E+00
4.00E+01,2.455E+02,-8.028E+01,1.406E+02,1.000E+00
4.10E+01,2.512E+02,-8.816E+01,9.825E+01,1.000E+00
4.20E+01,2.570E+02,-8.232E+01,6.330E+00,1.000E+00
4.30E+01,2.630E+02,-7.625E+01,-9.487E+00,1.000E+00
4.40E+01,2.692E+02,-8.810E+01,-1.582E+02,1.000E+00
4.50E+01,2.754E+02,-7.090E+01,3.531E+01,1.000E+00
4.60E+01,2.818E+02,-9.571E+01,1.560E+02,1.000E+00
4.70E+01,2.884E+02,-7.488E+01,2.523E+01,1.000E+00
4.80E+01,2.951E+02,-9.287E+01,-1.769E+02,1.000E+00
4.90E+01,3.020E+02,-7.281E+01,-2.742E+01,1.000E+00
5.00E+01,3.090E+02,-8.851E+01,-8.082E+01,1.000E+00
5.10E+01,3.162E+02,-7.817E+01,-5.419E+01,1.000E+00
5.20E+01,3.236E+02,-7.376E+01,2.995E+01,1.000E+00
5.30E+01,3.311E+02,-7.952E+01,3.465E+00,1.000E+00
5.40E+01,3.388E+02,-8.047E+01,3.943E+01,1.000E+00
5.50E+01,3.467E+02,-8.100E+01,3.129E+01,1.000E+00
5.60E+01,3.548E+02,-8.051E+01,-4.408E+00,1.000E+00
5.70E+01,3.631E+02,-8.526E+01,1.054E+02,1.000E+00
5.80E+01,3.715E+02,-7.404E+01,-1.983E+01,1.000E+00
5.90E+01,3.802E+02,-7.350E+01,9.959E+00,1.000E+00
6.00E+01,3.890E+02,-7.444E+01,-1.465E+02,1.000E+00
6.10E+01,3.981E+02,-7.707E+01,-4.424E+01,1.000E+00
6.20E+01,4.074E+02,-7.216E+01,-9.309E+01,1.000E+00
6.30E+01,4.169E+02,-8.004E+01,-3.032E+01,1.000E+00
6.40E+01,4.266E+02,-6.945E+01,4.702E+00,1.000E+00
6.50E+01,4.365E+02,-7.433E+01,-2.005E+01,1.000E+00
6.60E+01,4.467E+02,-6.844E+01,9.448E+01,1.000E+00
6.70E+01,4.571E+02,-7.716E+01,9.074E+00,1.000E+00
6.80E+01,4.677E+02,-6.989E+01,-1.034E+02,1.000E+00
6.90E+01,4.786E+02,-6.875E+01,-6.577E+00,1.000E+00
7.00E+01,4.898E+02,-7.272E+01,6.255E+01,1.000E+00
7.10E+01,5.012E+02,-8.154E+01,5.802E+01,1.000E+00
7.20E+01,5.129E+02,-7.113E+01,-5.237E+01,1.000E+00
7.30E+01,5.248E+02,-7.378E+01,-5.033E+01,1.000E+00
7.40E+01,5.370E+02,-7.412E+01,-2.047E+01,1.000E+00
7.50E+01,5.495E+02,-6.761E+01,1.705E+01,1.000E+00
7.60E+01,5.623E+02,-6.883E+01,-2.663E+01,1.000E+00
7.70E+01,5.754E+02,-7.506E+01,2.189E+01,1.000E+00
7.80E+01,5.888E+02,-7.119E+01,-6.928E+00,1.000E+00
7.90E+01,6.026E+02,-7.005E+01,-2.386E+00,1.000E+00
8.00E+01,6.166E+02,-7.237E+01,-5.917E+01,1.000E+00
8.10E+01,6.310E+02,-7.854E+01,-2.030E+01,1.000E+00
8.20E+01,6.457E+02,-7.437E+01,-3.991E+01,1.000E+00
8.30E+01,6.607E+02,-7.250E+01,1.374E+01,1.000E+00
8.40E+01,6.761E+02,-6.779E+01,-5.561E+01,1.000E+00
8.50E+01,6.918E+02,-6.831E+01,-2.033E+01,1.000E+00
8.60E+01,7.079E+02,-6.744E+01,-4.443E+01,1.000E+00
8.70E+01,7.244E+02,-6.784E+01,-5.012E+01,1.000E+00
8.80E+01,7.413E+02,-6.642E+01,-5.035E+01,1.000E+00
8.90E+01,7.586E+02,-6.497E+01,-3.670E+01,1.000E+00
9.00E+01,7.762E+02,-6.790E+01,-5.102E+01,1.000E+00
9.10E+01,7.943E+02,-6.602E+01,-4.857E+01,1.000E+00
9.20E+01,8.128E+02,-6.330E+01,-7.027E+01,1.000E+00
9.30E+01,8.318E+02,-6.371E+01,-5.267E+01,1.000E+00
9.40E+01,8.511E+02,-6.396E+01,-6.211E+01,1.000E+00
9.50E+01,8.710E+02,-6.245E+01,-8.627E+01,1.000E+00
9.60E+01,8.913E+02,-6.181E+01,-7.461E+01,1.000E+00
9.70E+01,9.120E+02,-6.217E+01,-7.773E+01,1.000E+00
9.80E+01,9.333E+02,-6.132E+01,-9.009E+01,1.000E+00
9.90E+01,9.550E+02,-6.062E+01,-1.043E+02,1.000E+00
1.00E+02,9.772E+02,-6.166E+01,-9.592E+01,1.000E+00
1.01E+02,1.000E+03,-6.114E+01,-9.272E+01,1.000E+00
1.02E+02,1.023E+03,-6.116E+01,-1.120E+02,1.000E+00
1.03E+02,1.047E+03,-6.037E+01,-1.131E+02,1.000E+00
1.04E+02,1.072E+03,-6.085E+01,-1.096E+02,1.000E+00
1.05E+02,1.096E+03,-6.040E+01,-1.181E+02,1.000E+00
1.06E+02,1.122E+03,-6.085E+01,-1.245E+02,1.000E+00
1.07E+02,1.148E+03,-6.223E+01,-1.353E+02,1.000E+00
1.08E+02,1.175E+03,-6.191E+01,-1.462E+02,1.000E+00
1.09E+02,1.202E+03,-6.212E+01,-1.451E+02,1.000E+00
1.10E+02,1.230E+03,-6.269E+01,-1.340E+02,1.000E+00
1.11E+02,1.259E+03,-6.319E+01,-1.290E+02,1.000E+00
1.12E+02,1.288E+03,-6.149E+01,-1.290E+02,1.000E+00
1.13E+02,1.318E+03,-6.253E+01,-1.478E+02,1.000E+00
1.14E+02,1.349E+03,-6.323E+01,-1.579E+02,1.000E+00
1.15E+02,1.380E+03,-6.490E+01,-1.523E+02,1.000E+00
1.16E+02,1.413E+03,-6.563E+01,-1.659E+02,1.000E+00
1.17E+02,1.445E+03,-6.403E+01,-1.394E+02,1.000E+00
1.18E+02,1.479E+03,-6.391E+01,-1.500E+02,1.000E+00
1.19E+02,1.514E+03,-6.454E+01,-1.585E+02,1.000E+00
1.20E+02,1.549E+03,-6.465E+01,-1.672E+02,1.000E+00
1.21E+02,1.585E+03,-6.494E+01,-1.679E+02,1.000E+00
1.22E+02,1.622E+03,-6.385E+01,-1.603E+02,1.000E+00
1.23E+02,1.660E+03,-6.423E+01,-1.537E+02,1.000E+00
1.24E+02,1.698E+03,-6.329E+01,-1.563E+02,1.000E+00
1.25E+02,1.738E+03,-6.327E+01,-1.599E+02,1.000E+00
1.26E+02,1.778E+03,-6.578E+01,-1.493E+02,1.000E+00
1.27E+02,1.820E+03,-6.643E+01,-1.713E+02,1.000E+00
1.28E+02,1.862E+03,-6.358E+01,-1.545E+02,1.000E+00
1.29E+02,1.905E+03,-6.438E+01,-1.697E+02,1.000E+00
1.30E+02,1.950E+03,-6.445E+01,-1.630E+02,1.000E+00
1.31E+02,1.995E+03,-6.784E+01,-1.680E+02,1.000E+00
1.32E+02,2.042E+03,-6.487E+01,-1.727E+02,1.000E+00
1.33E+02,2.089E+03,-6.500E+01,-1.736E+02,1.000E+00
1.34E+02,2.138E+03,-6.576E+01,-1.781E+02,1.000E+00
1.35E+02,2.188E+03,-6.716E+01,-1.720E+02,1.000E+00
1.36E+02,2.239E+03,-6.589E+01,-1.775E+02,1.000E+00
1.37E+02,2.291E+03,-6.600E+01,-1.529E+02,1.000E+00
1.38E+02,2.344E+03,-6.799E+01,-1.543E+02,1.000E+00
1.39E+02,2.399E+03,-6.719E+01,-1.763E+02,1.000E+00
1.40E+02,2.455E+03,-6.526E+01,-1.743E+02,1.000E+00
1.41E+02,2.512E+03,-6.737E+01,-1.622E+02,1.000E+00
1.42E+02,2.570E+03,-6.610E+01,-1.654E+02,1.000E+00
1.43E+02,2.630E+03,-6.752E+01,-1.639E+02,1.000E+00
1.44E+02,2.692E+03,-6.513E+01,-1.680E+02,1.000E+00
1.45E+02,2.754E+03,-6.503E+01,-1.775E+02,1.000E+00
1.46E+02,2.818E+03,-6.707E+01,-1.684E+02,1.000E+00
1.47E+02,2.884E+03,-6.691E+01,-1.695E+02,1.000E+00
1.48E+02,2.951E+03,-6.731E+01,-1.562E+02,1.000E+00
1.49E+02,3.020E+03,-6.680E+01,-1.568E+02,1.000E+00
1.50E+02,3.090E+03,-6.735E+01,-1.693E+02,1.000E+00
1.51E+02,3.162E+03,-6.759E+01,-1.785E+02,1.000E+00
1.52E+02,3.236E+03,-6.729E+01,-1.749E+02,1.000E+00
1.53E+02,3.311E+03,-6.645E+01,-1.658E+02,1.000E+00
1.54E+02,3.388E+03,-6.500E+01,-1.665E+02,1.000E+00
1.55E+02,3.467E+03,-6.755E+01,-1.668E+02,1.000E+00
1.56E+02,3.548E+03,-6.930E+01,1.799E+02,1.000E+00
1.57E+02,3.631E+03,-6.833E+01,-1.779E+02,1.000E+00
1.58E+02,3.715E+03,-6.678E+01,-1.718E+02,1.000E+00
1.59E+02,3.802E+03,-6.699E+01,-1.707E+02,1.000E+00
1.60E+02,3.890E+03,-6.763E+01,-1.684E+02,1.000E+00
1.61E+02,3.981E+03,-6.681E+01,-1.599E+02,1.000E+00
1.62E+02,4.074E+03,-6.708E+01,-1.659E+02,1.000E+00
1.63E+02,4.169E+03,-6.658E+01,1.781E+02,1.000E+00
1.64E+02,4.266E+03,-6.704E+01,1.790E+02,1.000E+00
1.65E+02,4.365E+03,-6.822E+01,1.792E+02,1.000E+00
1.66E+02,4.467E+03,-6.882E+01,-1.722E+02,1.000E+00
1.67E+02,4.571E+03,-6.855E+01,-1.643E+02,1.000E+00
1.68E+02,4.677E+03,-6.596E+01,-1.764E+02,1.000E+00
1.69E+02,4.786E+03,-6.501E+01,-1.762E+02,1.000E+00
1.70E+02,4.898E+03,-6.636E+01,-1.753E+02,1.000E+00
1.71E+02,5.012E+03,-6.820E+01,-1.758E+02,1.000E+00
1.72E+02,5.129E+03,-6.880E+01,-1.630E+02,1.000E+00
1.73E+02,5.248E+03,-6.705E+01,-1.660E+02,1.000E+00
1.74E+02,5.370E+03,-6.766E+01,-1.725E+02,1.000E+00
1.75E+02,5.495E+03,-6.828E+01,1.781E+02,1.000E+00
1.76E+02,5.623E+03,-6.828E+01,1.748E+02,1.000E+00
1.77E+02,5.754E+03,-6.844E+01,1.793E+02,1.000E+00
1.78E+02,5.888E+03,-6.699E+01,-1.704E+02,1.000E+00
1.79E+02,6.026E+03,-6.624E+01,-1.739E+02,1.000E+00
1.80E+02,6.166E+03,-6.643E+01,-1.770E+02,1.000E+00
1.81E+02,6.310E+03,-6.673E+01,-1.578E+02,1.000E+00
1.82E+02,6.457E+03,-6.678E+01,-1.733E+02,1.000E+00
1.83E+02,6.607E+03,-6.702E+01,-1.710E+02,1.000E+00
1.84E+02,6.761E+03,-6.780E+01,-1.706E+02,1.000E+00
1.85E+02,6.918E+03,-6.779E+01,-1.763E+02,1.000E+00
1.86E+02,7.079E+03,-6.750E+01,-1.761E+02,1.000E+00
1.87E+02,7.244E+03,-6.693E+01,1.712E+02,1.000E+00
1.88E+02,7.413E+03,-6.730E+01,1.688E+02,1.000E+00
1.89E+02,7.586E+03,-6.721E+01,-1.710E+02,1.000E+00
1.90E+02,7.762E+03,-6.654E+01,-1.764E+02,1.000E+00
1.91E+02,7.943E+03,-6.769E+01,-1.749E+02,1.000E+00
1.92E+02,8.128E+03,-6.870E+01,-1.731E+02,1.000E+00
1.93E+02,8.318E+03,-6.794E+01,-1.736E+02,1.000E+00
1.94E+02,8.511E+03,-6.745E+01,1.797E+02,1.000E+00
1.95E+02,8.710E+03,-6.930E+01,1.786E+02,1.000E+00
1.96E+02,8.913E+03,-6.943E+01,-1.767E+02,1.000E+00
1.97E+02,9.120E+03,-6.846E+01,-1.707E+02,1.000E+00
1.98E+02,9.333E+03,-6.628E+01,-1.768E+02,1.000E+00
1.99E+02,9.550E+03,-6.960E+01,1.744E+02,1.000E+00
2.00E+02,9.772E+03,-6.894E+01,1.739E+02,1.000E+00
2.01E+02,1.000E+04,-6.713E+01,-1.794E+02,1.000E+00
