in Sa,Frequency in Hz,Gain in dB,Phase in °,Amplitude in Vpp
1.00E+00,1.000E+01,3.501E+01,-7.849E+01,1.000E-02
2.00E+00,1.023E+01,3.487E+01,-7.960E+01,1.000E-02
3.00E+00,1.047E+01,3.463E+01,-8.109E+01,1.000E-02
4.00E+00,1.072E+01,3.447E+01,-8.228E+01,1.000E-02
5.00E+00,1.096E+01,3.426E+01,-8.397E+01,1.000E-02
6.00E+00,1.122E+01,3.409E+01,-8.508E+01,1.000E-02
7.00E+00,1.148E+01,3.389E+01,-8.646E+01,1.000E-02
8.00E+00,1.175E+01,3.375E+01,-8.751E+01,1.000E-02
9.00E+00,1.202E+01,3.352E+01,-8.884E+01,1.000E-02
1.00E+01,1.230E+01,3.331E+01,-9.042E+01,1.000E-02
1.10E+01,1.259E+01,3.306E+01,-9.205E+01,1.000E-02
1.20E+01,1.288E+01,3.284E+01,-9.319E+01,1.000E-02
1.30E+01,1.318E+01,3.262E+01,-9.448E+01,1.000E-02
1.40E+01,1.349E+01,3.238E+01,-9.582E+01,1.000E-02
1.50E+01,1.380E+01,3.216E+01,-9.718E+01,1.000E-02
1.60E+01,1.413E+01,3.194E+01,-9.835E+01,1.000E-02
1.70E+01,1.445E+01,3.161E+01,-1.000E+02,1.000E-02
1.80E+01,1.479E+01,3.139E+01,-1.012E+02,1.000E-02
1.90E+01,1.514E+01,3.119E+01,-1.023E+02,1.000E-02
2.00E+01,1.549E+01,3.088E+01,-1.037E+02,1.000E-02
2.10E+01,1.585E+01,3.066E+01,-1.052E+02,1.000E-02
2.20E+01,1.622E+01,3.038E+01,-1.066E+02,1.000E-02
2.30E+01,1.660E+01,3.006E+01,-1.080E+02,1.000E-02
2.40E+01,1.698E+01,2.977E+01,-1.092E+02,1.000E-02
2.50E+01,1.738E+01,2.948E+01,-1.105E+02,1.000E-02
2.60E+01,1.778E+01,2.920E+01,-1.120E+02,1.000E-02
2.70E+01,1.820E+01,2.891E+01,-1.130E+02,1.000E-02
2.80E+01,1.862E+01,2.862E+01,-1.141E+02,1.000E-02
2.90E+01,1.905E+01,2.824E+01,-1.158E+02,1.000E-02
3.00E+01,1.950E+01,2.798E+01,-1.167E+02,1.000E-02
3.10E+01,1.995E+01,2.763E+01,-1.184E+02,1.000E-02
3.20E+01,2.042E+01,2.733E+01,-1.192E+02,1.000E-02
3.30E+01,2.089E+01,2.698E+01,-1.207E+02,1.000E-02
3.40E+01,2.138E+01,2.660E+01,-1.218E+02,1.000E-02
3.50E+01,2.188E+01,2.630E+01,-1.233E+02,1.000E-02
3.60E+01,2.239E+01,2.594E+01,-1.243E+02,1.000E-02
3.70E+01,2.291E+01,2.557E+01,-1.253E+02,1.000E-02
3.80E+01,2.344E+01,2.523E+01,-1.266E+02,1.000E-02
3.90E+01,2.399E+01,2.484E+01,-1.280E+02,1.000E-02
4.00E+01,2.455E+01,2.447E+01,-1.289E+02,1.000E-02
4.10E+01,2.512E+01,2.410E+01,-1.306E+02,1.000E-02
4.20E+01,2.570E+01,2.368E+01,-1.314E+02,1.000E-02
4.30E+01,2.630E+01,2.323E+01,-1.326E+02,1.000E-02
4.40E+01,2.692E+01,2.284E+01,-1.336E+02,1.000E-02
4.50E+01,2.754E+01,2.241E+01,-1.349E+02,1.000E-02
4.60E+01,2.818E+01,2.199E+01,-1.360E+02,1.000E-02
4.70E+01,2.884E+01,2.159E+01,-1.371E+02,1.000E-02
4.80E+01,2.951E+01,2.114E+01,-1.382E+02,1.000E-02
4.90E+01,3.020E+01,2.067E+01,-1.392E+02,1.000E-02
5.00E+01,3.090E+01,2.019E+01,-1.405E+02,1.000E-02
5.10E+01,3.162E+01,1.974E+01,-1.414E+02,1.000E-02
5.20E+01,3.236E+01,1.923E+01,-1.425E+02,1.000E-02
5.30E+01,3.311E+01,1.874E+01,-1.436E+02,1.000E-02
5.40E+01,3.388E+01,1.821E+01,-1.445E+02,1.000E-02
5.50E+01,3.467E+01,1.770E+01,-1.456E+02,1.000E-02
5.60E+01,3.548E+01,1.717E+01,-1.466E+02,1.000E-02
5.70E+01,3.631E+01,1.660E+01,-1.476E+02,1.000E-02
5.80E+01,3.715E+01,1.601E+01,-1.486E+02,1.000E-02
5.90E+01,3.802E+01,1.545E+01,-1.494E+02,1.000E-02
6.00E+01,3.890E+01,1.484E+01,-1.505E+02,1.000E-02
6.10E+01,3.981E+01,1.423E+01,-1.513E+02,1.000E-02
6.20E+01,4.074E+01,1.360E+01,-1.525E+02,1.000E-02
6.30E+01,4.169E+01,1.287E+01,-1.533E+02,1.000E-02
6.40E+01,4.266E+01,1.212E+01,-1.543E+02,1.000E-02
6.50E+01,4.365E+01,1.138E+01,-1.552E+02,1.000E-02
6.60E+01,4.467E+01,1.063E+01,-1.557E+02,1.000E-02
6.70E+01,4.571E+01,9.852E+00,-1.565E+02,1.000E-02
6.80E+01,4.677E+01,8.884E+00,-1.575E+02,1.000E-02
6.90E+01,4.786E+01,7.989E+00,-1.584E+02,1.000E-02
7.00E+01,4.898E+01,7.037E+00,-1.590E+02,1.000E-02
7.10E+01,5.012E+01,5.919E+00,-1.594E+02,1.000E-02
7.20E+01,5.129E+01,4.778E+00,-1.610E+02,1.000E-02
7.30E+01,5.248E+01,3.518E+00,-1.608E+02,1.000E-02
7.40E+01,5.370E+01,1.970E+00,-1.624E+02,1.000E-02
7.50E+01,5.495E+01,2.309E-01,-1.606E+02,1.000E-02
7.60E+01,5.623E+01,-1.538E+00,-1.606E+02,1.000E-02
7.70E+01,5.754E+01,-3.688E+00,-1.629E+02,1.000E-02
7.80E+01,5.888E+01,-7.746E+00,-1.613E+02,1.000E-02
7.90E+01,6.026E+01,-1.281E+01,-1.599E+02,1.000E-02
8.00E+01,6.166E+01,-2.435E+01,-1.173E+02,1.000E-02
8.10E+01,6.310E+01,-1.777E+01,-2.699E+01,1.000E-02
8.20E+01,6.457E+01,-1.189E+01,-1.307E+00,1.000E-02
8.30E+01,6.607E+01,-6.752E+00,2.194E+00,1.000E-02
8.40E+01,6.761E+01,-5.069E+00,1.241E+00,1.000E-02
8.50E+01,6.918E+01,-2.809E+00,3.553E-01,1.000E-02
8.60E+01,7.079E+01,-1.092E+00,1.401E+00,1.000E-02
8.70E+01,7.244E+01,-3.123E-01,2.806E+00,1.000E-02
8.80E+01,7.413E+01,1.020E+00,5.399E-01,1.000E-02
8.90E+01,7.586E+01,1.753E+00,-2.965E-01,1.000E-02
9.00E+01,7.762E+01,2.678E+00,-4.327E-02,1.000E-02
9.10E+01,7.943E+01,3.147E+00,-9.087E-01,1.000E-02
9.20E+01,8.128E+01,3.723E+00,-1.390E+00,1.000E-02
9.30E+01,8.318E+01,4.350E+00,-2.335E+00,1.000E-02
9.40E+01,8.511E+01,4.773E+00,-2.129E+00,1.000E-02
9.50E+01,8.710E+01,5.320E+00,-3.464E+00,1.000E-02
9.60E+01,8.913E+01,5.628E+00,-4.166E+00,1.000E-02
9.70E+01,9.120E+01,5.914E+00,-4.723E+00,1.000E-02
9.80E+01,9.333E+01,6.327E+00,-5.566E+00,1.000E-02
9.90E+01,9.550E+01,6.566E+00,-6.560E+00,1.000E-02
1.00E+02,9.772E+01,6.836E+00,-6.916E+00,1.000E-02
1.01E+02,1.000E+02,7.111E+00,-8.007E+00,1.000E-02
1.02E+02,1.023E+02,7.294E+00,-8.618E+00,1.000E-02
1.03E+02,1.047E+02,7.468E+00,-9.400E+00,1.000E-02
1.04E+02,1.072E+02,7.669E+00,-1.029E+01,1.000E-02
1.05E+02,1.096E+02,7.866E+00,-1.080E+01,1.000E-02
1.06E+02,1.122E+02,8.013E+00,-1.183E+01,1.000E-02
1.07E+02,1.148E+02,8.178E+00,-1.240E+01,1.000E-02
1.08E+02,1.175E+02,8.265E+00,-1.305E+01,1.000E-02
1.09E+02,1.202E+02,8.382E+00,-1.381E+01,1.000E-02
1.10E+02,1.230E+02,8.468E+00,-1.464E+01,1.000E-02
1.11E+02,1.259E+02,8.600E+00,-1.565E+01,1.000E-02
1.12E+02,1.288E+02,8.669E+00,-1.627E+01,1.000E-02
1.13E+02,1.318E+02,8.741E+00,-1.717E+01,1.000E-02
1.14E+02,1.349E+02,8.816E+00,-1.803E+01,1.000E-02
1.15E+02,1.380E+02,8.794E+00,-1.872E+01,1.000E-02
1.16E+02,1.413E+02,8.903E+00,-1.956E+01,1.000E-02
1.17E+02,1.445E+02,8.980E+00,-2.036E+01,1.000E-02
1.18E+02,1.479E+02,9.004E+00,-2.098E+01,1.000E-02
1.19E+02,1.514E+02,9.026E+00,-2.160E+01,1.000E-02
1.20E+02,1.549E+02,9.023E+00,-2.282E+01,1.000E-02
1.21E+02,1.585E+02,9.083E+00,-2.349E+01,1.000E-02
1.22E+02,1.622E+02,9.073E+00,-2.439E+01,1.000E-02
1.23E+02,1.660E+02,9.083E+00,-2.504E+01,1.000E-02
1.24E+02,1.698E+02,9.070E+00,-2.557E+01,1.000E-02
1.25E+02,1.738E+02,9.038E+00,-2.646E+01,1.000E-02
1.26E+02,1.778E+02,9.018E+00,-2.716E+01,1.000E-02
1.27E+02,1.820E+02,9.048E+00,-2.824E+01,1.000E-02
1.28E+02,1.862E+02,9.036E+00,-2.893E+01,1.000E-02
1.29E+02,1.905E+02,8.957E+00,-2.968E+01,1.000E-02
1.30E+02,1.950E+02,9.002E+00,-3.061E+01,1.000E-02
1.31E+02,1.995E+02,8.912E+00,-3.114E+01,1.000E-02
1.32E+02,2.042E+02,8.892E+00,-3.188E+01,1.000E-02
1.33E+02,2.089E+02,8.889E+00,-3.299E+01,1.000E-02
1.34E+02,2.138E+02,8.874E+00,-3.362E+01,1.000E-02
1.35E+02,2.188E+02,8.787E+00,-3.467E+01,1.000E-02
1.36E+02,2.239E+02,8.658E+00,-3.513E+01,1.000E-02
1.37E+02,2.291E+02,8.629E+00,-3.625E+01,1.000E-02
1.38E+02,2.344E+02,8.609E+00,-3.645E+01,1.000E-02
1.39E+02,2.399E+02,8.539E+00,-3.766E+01,1.000E-02
1.40E+02,2.455E+02,8.481E+00,-3.852E+01,1.000E-02
1.41E+02,2.512E+02,8.350E+00,-3.936E+01,1.000E-02
1.42E+02,2.570E+02,8.265E+00,-3.979E+01,1.000E-02
1.43E+02,2.630E+02,8.157E+00,-4.075E+01,1.000E-02
1.44E+02,2.692E+02,8.130E+00,-4.149E+01,1.000E-02
1.45E+02,2.754E+02,8.089E+00,-4.234E+01,1.000E-02
1.46E+02,2.818E+02,7.907E+00,-4.248E+01,1.000E-02
1.47E+02,2.884E+02,7.801E+00,-4.384E+01,1.000E-02
1.48E+02,2.951E+02,7.790E+00,-4.424E+01,1.000E-02
1.49E+02,3.020E+02,7.655E+00,-4.455E+01,1.000E-02
1.50E+02,3.090E+02,7.523E+00,-4.566E+01,1.000E-02
1.51E+02,3.162E+02,7.473E+00,-4.632E+01,1.000E-02
1.52E+02,3.236E+02,7.348E+00,-4.698E+01,1.000E-02
1.53E+02,3.311E+02,7.189E+00,-4.723E+01,1.000E-02
1.54E+02,3.388E+02,7.103E+00,-4.802E+01,1.000E-02
1.55E+02,3.467E+02,6.994E+00,-4.893E+01,1.000E-02
1.56E+02,3.548E+02,6.857E+00,-4.986E+01,1.000E-02
1.57E+02,3.631E+02,6.768E+00,-5.076E+01,1.000E-02
1.58E+02,3.715E+02,6.687E+00,-5.086E+01,1.000E-02
1.59E+02,3.802E+02,6.439E+00,-5.195E+01,1.000E-02
1.60E+02,3.890E+02,6.355E+00,-5.202E+01,1.000E-02
1.61E+02,3.981E+02,6.202E+00,-5.325E+01,1.000E-02
1.62E+02,4.074E+02,6.125E+00,-5.342E+01,1.000E-02
1.63E+02,4.169E+02,5.921E+00,-5.408E+01,1.000E-02
1.64E+02,4.266E+02,5.824E+00,-5.493E+01,1.000E-02
1.65E+02,4.365E+02,5.568E+00,-5.557E+01,1.000E-02
1.66E+02,4.467E+02,5.627E+00,-5.575E+01,1.000E-02
1.67E+02,4.571E+02,5.378E+00,-5.627E+01,1.000E-02
1.68E+02,4.677E+02,5.283E+00,-5.690E+01,1.000E-02
1.69E+02,4.786E+02,5.068E+00,-5.777E+01,1.000E-02
1.70E+02,4.898E+02,4.920E+00,-5.799E+01,1.000E-02
1.71E+02,5.012E+02,4.755E+00,-5.938E+01,1.000E-02
1.72E+02,5.129E+02,4.690E+00,-5.955E+01,1.000E-02
1.73E+02,5.248E+02,4.535E+00,-6.004E+01,1.000E-02
1.74E+02,5.370E+02,4.439E+00,-5.972E+01,1.000E-02
1.75E+02,5.495E+02,4.163E+00,-5.993E+01,1.000E-02
1.76E+02,5.623E+02,4.061E+00,-6.120E+01,1.000E-02
1.77E+02,5.754E+02,3.926E+00,-6.190E+01,1.000E-02
1.78E+02,5.888E+02,3.684E+00,-6.261E+01,1.000E-02
1.79E+02,6.026E+02,3.548E+00,-6.254E+01,1.000E-02
1.80E+02,6.166E+02,3.391E+00,-6.304E+01,1.000E-02
1.81E+02,6.310E+02,3.348E+00,-6.391E+01,1.000E-02
1.82E+02,6.457E+02,3.094E+00,-6.480E+01,1.000E-02
1.83E+02,6.607E+02,2.844E+00,-6.492E+01,1.000E-02
1.84E+02,6.761E+02,2.798E+00,-6.448E+01,1.000E-02
1.85E+02,6.918E+02,2.639E+00,-6.524E+01,1.000E-02
1.86E+02,7.079E+02,2.381E+00,-6.645E+01,1.000E-02
1.87E+02,7.244E+02,2.295E+00,-6.620E+01,1.000E-02
1.88E+02,7.413E+02,2.037E+00,-6.671E+01,1.000E-02
1.89E+02,7.586E+02,1.867E+00,-6.669E+01,1.000E-02
1.90E+02,7.762E+02,1.724E+00,-6.801E+01,1.000E-02
1.91E+02,7.943E+02,1.505E+00,-6.823E+01,1.000E-02
1.92E+02,8.128E+02,1.414E+00,-6.721E+01,1.000E-02
1.93E+02,8.318E+02,1.216E+00,-6.824E+01,1.000E-02
1.94E+02,8.511E+02,1.142E+00,-6.836E+01,1.000E-02
1.95E+02,8.710E+02,7.719E-01,-6.889E+01,1.000E-02
1.96E+02,8.913E+02,7.656E-01,-6.921E+01,1.000E-02
1.97E+02,9.120E+02,5.211E-01,-7.018E+01,1.000E-02
1.98E+02,9.333E+02,3.032E-01,-7.008E+01,1.000E-02
1.99E+02,9.550E+02,2.100E-01,-6.980E+01,1.000E-02
2.00E+02,9.772E+02,-7.261E-02,-7.089E+01,1.000E-02
2.01E+02,1.000E+03,-1.501E-01,-7.141E+01,1.000E-02
